Index       TIME              V(A)              V(B)              V(C)              V(D)              V(S)              V(C)       
0        0.00000000e+00    0.00000000e+00    0.00000000e+00    0.00000000e+00    0.00000000e+00    0.00000000e+00    0.00000000e+00
1        2.00000000e-11    0.00000000e+00    0.00000000e+00    0.00000000e+00    0.00000000e+00    4.45073786e-09    0.00000000e+00
2        6.00000000e-11    0.00000000e+00    0.00000000e+00    0.00000000e+00    0.00000000e+00    7.42420265e-09    0.00000000e+00
3        1.10000000e-10    0.00000000e+00    0.00000000e+00    0.00000000e+00    0.00000000e+00    9.15812961e-09    0.00000000e+00
4        1.60000000e-10    0.00000000e+00    0.00000000e+00    0.00000000e+00    0.00000000e+00    9.06154714e-09    0.00000000e+00
5        2.10000000e-10    0.00000000e+00    0.00000000e+00    0.00000000e+00    0.00000000e+00    9.07154782e-09    0.00000000e+00
6        2.60000000e-10    0.00000000e+00    0.00000000e+00    0.00000000e+00    0.00000000e+00    9.06720377e-09    0.00000000e+00
7        3.10000000e-10    0.00000000e+00    0.00000000e+00    0.00000000e+00    0.00000000e+00    9.07036521e-09    0.00000000e+00
8        3.60000000e-10    0.00000000e+00    0.00000000e+00    0.00000000e+00    0.00000000e+00    9.06794761e-09    0.00000000e+00
9        4.10000000e-10    0.00000000e+00    0.00000000e+00    0.00000000e+00    0.00000000e+00    9.06980285e-09    0.00000000e+00
10       4.60000000e-10    0.00000000e+00    0.00000000e+00    0.00000000e+00    0.00000000e+00    9.06837884e-09    0.00000000e+00
11       5.10000000e-10    0.00000000e+00    0.00000000e+00    0.00000000e+00    0.00000000e+00    9.06947190e-09    0.00000000e+00
12       5.60000000e-10    0.00000000e+00    0.00000000e+00    0.00000000e+00    0.00000000e+00    9.06863283e-09    0.00000000e+00
13       6.10000000e-10    0.00000000e+00    0.00000000e+00    0.00000000e+00    0.00000000e+00    9.06927689e-09    0.00000000e+00
14       6.60000000e-10    0.00000000e+00    0.00000000e+00    0.00000000e+00    0.00000000e+00    9.06878248e-09    0.00000000e+00
15       7.10000000e-10    0.00000000e+00    0.00000000e+00    0.00000000e+00    0.00000000e+00    9.06916199e-09    0.00000000e+00
16       7.60000000e-10    0.00000000e+00    0.00000000e+00    0.00000000e+00    0.00000000e+00    9.06887074e-09    0.00000000e+00
17       8.10000000e-10    0.00000000e+00    0.00000000e+00    0.00000000e+00    0.00000000e+00    9.06909424e-09    0.00000000e+00
18       8.60000000e-10    0.00000000e+00    0.00000000e+00    0.00000000e+00    0.00000000e+00    9.06892268e-09    0.00000000e+00
19       9.10000000e-10    0.00000000e+00    0.00000000e+00    0.00000000e+00    0.00000000e+00    9.06905447e-09    0.00000000e+00
20       9.60000000e-10    0.00000000e+00    0.00000000e+00    0.00000000e+00    0.00000000e+00    9.06895327e-09    0.00000000e+00
21       1.01000000e-09    0.00000000e+00    0.00000000e+00    0.00000000e+00    0.00000000e+00    9.06903095e-09    0.00000000e+00
22       1.06000000e-09    0.00000000e+00    0.00000000e+00    0.00000000e+00    0.00000000e+00    9.06897131e-09    0.00000000e+00
23       1.11000000e-09    0.00000000e+00    0.00000000e+00    0.00000000e+00    0.00000000e+00    9.06901702e-09    0.00000000e+00
24       1.16000000e-09    0.00000000e+00    0.00000000e+00    0.00000000e+00    0.00000000e+00    9.06898185e-09    0.00000000e+00
25       1.21000000e-09    0.00000000e+00    0.00000000e+00    0.00000000e+00    0.00000000e+00    9.06900892e-09    0.00000000e+00
26       1.26000000e-09    0.00000000e+00    0.00000000e+00    0.00000000e+00    0.00000000e+00    9.06898806e-09    0.00000000e+00
27       1.31000000e-09    0.00000000e+00    0.00000000e+00    0.00000000e+00    0.00000000e+00    9.06900410e-09    0.00000000e+00
28       1.36000000e-09    0.00000000e+00    0.00000000e+00    0.00000000e+00    0.00000000e+00    9.06899180e-09    0.00000000e+00
29       1.41000000e-09    0.00000000e+00    0.00000000e+00    0.00000000e+00    0.00000000e+00    9.06900113e-09    0.00000000e+00
30       1.46000000e-09    0.00000000e+00    0.00000000e+00    0.00000000e+00    0.00000000e+00    9.06899406e-09    0.00000000e+00
31       1.51000000e-09    0.00000000e+00    0.00000000e+00    0.00000000e+00    0.00000000e+00    9.06899960e-09    0.00000000e+00
32       1.56000000e-09    0.00000000e+00    0.00000000e+00    0.00000000e+00    0.00000000e+00    9.06899532e-09    0.00000000e+00
33       1.61000000e-09    0.00000000e+00    0.00000000e+00    0.00000000e+00    0.00000000e+00    9.06899860e-09    0.00000000e+00
34       1.66000000e-09    0.00000000e+00    0.00000000e+00    0.00000000e+00    0.00000000e+00    9.06899613e-09    0.00000000e+00
35       1.71000000e-09    0.00000000e+00    0.00000000e+00    0.00000000e+00    0.00000000e+00    9.06899808e-09    0.00000000e+00
36       1.76000000e-09    0.00000000e+00    0.00000000e+00    0.00000000e+00    0.00000000e+00    9.06899655e-09    0.00000000e+00
37       1.81000000e-09    0.00000000e+00    0.00000000e+00    0.00000000e+00    0.00000000e+00    9.06899759e-09    0.00000000e+00
38       1.86000000e-09    0.00000000e+00    0.00000000e+00    0.00000000e+00    0.00000000e+00    9.06899680e-09    0.00000000e+00
39       1.91000000e-09    0.00000000e+00    0.00000000e+00    0.00000000e+00    0.00000000e+00    9.06899741e-09    0.00000000e+00
40       1.96000000e-09    0.00000000e+00    0.00000000e+00    0.00000000e+00    0.00000000e+00    9.06899686e-09    0.00000000e+00
41       2.01000000e-09    0.00000000e+00    0.00000000e+00    0.00000000e+00    0.00000000e+00    9.06899735e-09    0.00000000e+00
42       2.06000000e-09    0.00000000e+00    0.00000000e+00    0.00000000e+00    0.00000000e+00    9.06899699e-09    0.00000000e+00
43       2.11000000e-09    0.00000000e+00    0.00000000e+00    0.00000000e+00    0.00000000e+00    9.06899736e-09    0.00000000e+00
44       2.16000000e-09    0.00000000e+00    0.00000000e+00    0.00000000e+00    0.00000000e+00    9.06899707e-09    0.00000000e+00
45       2.21000000e-09    0.00000000e+00    0.00000000e+00    0.00000000e+00    0.00000000e+00    9.06899722e-09    0.00000000e+00
46       2.26000000e-09    0.00000000e+00    0.00000000e+00    0.00000000e+00    0.00000000e+00    9.06899716e-09    0.00000000e+00
47       2.31000000e-09    0.00000000e+00    0.00000000e+00    0.00000000e+00    0.00000000e+00    9.06899711e-09    0.00000000e+00
48       2.36000000e-09    0.00000000e+00    0.00000000e+00    0.00000000e+00    0.00000000e+00    9.06899712e-09    0.00000000e+00
49       2.41000000e-09    0.00000000e+00    0.00000000e+00    0.00000000e+00    0.00000000e+00    9.06899724e-09    0.00000000e+00
50       2.46000000e-09    0.00000000e+00    0.00000000e+00    0.00000000e+00    0.00000000e+00    9.06899716e-09    0.00000000e+00
51       2.51000000e-09    0.00000000e+00    0.00000000e+00    0.00000000e+00    0.00000000e+00    9.06899711e-09    0.00000000e+00
52       2.56000000e-09    0.00000000e+00    0.00000000e+00    0.00000000e+00    0.00000000e+00    9.06899712e-09    0.00000000e+00
53       2.61000000e-09    0.00000000e+00    0.00000000e+00    0.00000000e+00    0.00000000e+00    9.06899710e-09    0.00000000e+00
54       2.66000000e-09    0.00000000e+00    0.00000000e+00    0.00000000e+00    0.00000000e+00    9.06899711e-09    0.00000000e+00
55       2.71000000e-09    0.00000000e+00    0.00000000e+00    0.00000000e+00    0.00000000e+00    9.06899723e-09    0.00000000e+00
56       2.76000000e-09    0.00000000e+00    0.00000000e+00    0.00000000e+00    0.00000000e+00    9.06899716e-09    0.00000000e+00
57       2.81000000e-09    0.00000000e+00    0.00000000e+00    0.00000000e+00    0.00000000e+00    9.06899711e-09    0.00000000e+00
58       2.86000000e-09    0.00000000e+00    0.00000000e+00    0.00000000e+00    0.00000000e+00    9.06899712e-09    0.00000000e+00
59       2.91000000e-09    0.00000000e+00    0.00000000e+00    0.00000000e+00    0.00000000e+00    9.06899710e-09    0.00000000e+00
60       2.96000000e-09    0.00000000e+00    0.00000000e+00    0.00000000e+00    0.00000000e+00    9.06899711e-09    0.00000000e+00
61       3.01000000e-09    0.00000000e+00    0.00000000e+00    0.00000000e+00    0.00000000e+00    9.06899723e-09    0.00000000e+00
62       3.06000000e-09    0.00000000e+00    0.00000000e+00    0.00000000e+00    0.00000000e+00    9.06899716e-09    0.00000000e+00
63       3.11000000e-09    0.00000000e+00    0.00000000e+00    0.00000000e+00    0.00000000e+00    9.06899711e-09    0.00000000e+00
64       3.16000000e-09    0.00000000e+00    0.00000000e+00    0.00000000e+00    0.00000000e+00    9.06899712e-09    0.00000000e+00
65       3.21000000e-09    0.00000000e+00    0.00000000e+00    0.00000000e+00    0.00000000e+00    9.06899710e-09    0.00000000e+00
66       3.26000000e-09    0.00000000e+00    0.00000000e+00    0.00000000e+00    0.00000000e+00    9.06899711e-09    0.00000000e+00
67       3.31000000e-09    0.00000000e+00    0.00000000e+00    0.00000000e+00    0.00000000e+00    9.06899723e-09    0.00000000e+00
68       3.36000000e-09    0.00000000e+00    0.00000000e+00    0.00000000e+00    0.00000000e+00    9.06899716e-09    0.00000000e+00
69       3.41000000e-09    0.00000000e+00    0.00000000e+00    0.00000000e+00    0.00000000e+00    9.06899711e-09    0.00000000e+00
70       3.46000000e-09    0.00000000e+00    0.00000000e+00    0.00000000e+00    0.00000000e+00    9.06899712e-09    0.00000000e+00
71       3.51000000e-09    0.00000000e+00    0.00000000e+00    0.00000000e+00    0.00000000e+00    9.06899710e-09    0.00000000e+00
72       3.56000000e-09    0.00000000e+00    0.00000000e+00    0.00000000e+00    0.00000000e+00    9.06899711e-09    0.00000000e+00
73       3.61000000e-09    0.00000000e+00    0.00000000e+00    0.00000000e+00    0.00000000e+00    9.06899723e-09    0.00000000e+00
74       3.66000000e-09    0.00000000e+00    0.00000000e+00    0.00000000e+00    0.00000000e+00    9.06899716e-09    0.00000000e+00
75       3.71000000e-09    0.00000000e+00    0.00000000e+00    0.00000000e+00    0.00000000e+00    9.06899711e-09    0.00000000e+00
76       3.76000000e-09    0.00000000e+00    0.00000000e+00    0.00000000e+00    0.00000000e+00    9.06899712e-09    0.00000000e+00
77       3.81000000e-09    0.00000000e+00    0.00000000e+00    0.00000000e+00    0.00000000e+00    9.06899710e-09    0.00000000e+00
78       3.86000000e-09    0.00000000e+00    0.00000000e+00    0.00000000e+00    0.00000000e+00    9.06899711e-09    0.00000000e+00
79       3.91000000e-09    0.00000000e+00    0.00000000e+00    0.00000000e+00    0.00000000e+00    9.06899723e-09    0.00000000e+00
80       3.96000000e-09    0.00000000e+00    0.00000000e+00    0.00000000e+00    0.00000000e+00    9.06899716e-09    0.00000000e+00
81       4.01000000e-09    0.00000000e+00    0.00000000e+00    0.00000000e+00    0.00000000e+00    9.06899711e-09    0.00000000e+00
82       4.06000000e-09    0.00000000e+00    0.00000000e+00    0.00000000e+00    0.00000000e+00    9.06899712e-09    0.00000000e+00
83       4.11000000e-09    0.00000000e+00    0.00000000e+00    0.00000000e+00    0.00000000e+00    9.06899710e-09    0.00000000e+00
84       4.16000000e-09    0.00000000e+00    0.00000000e+00    0.00000000e+00    0.00000000e+00    9.06899711e-09    0.00000000e+00
85       4.21000000e-09    0.00000000e+00    0.00000000e+00    0.00000000e+00    0.00000000e+00    9.06899723e-09    0.00000000e+00
86       4.26000000e-09    0.00000000e+00    0.00000000e+00    0.00000000e+00    0.00000000e+00    9.06899716e-09    0.00000000e+00
87       4.31000000e-09    0.00000000e+00    0.00000000e+00    0.00000000e+00    0.00000000e+00    9.06899711e-09    0.00000000e+00
88       4.36000000e-09    0.00000000e+00    0.00000000e+00    0.00000000e+00    0.00000000e+00    9.06899712e-09    0.00000000e+00
89       4.41000000e-09    0.00000000e+00    0.00000000e+00    0.00000000e+00    0.00000000e+00    9.06899710e-09    0.00000000e+00
90       4.46000000e-09    0.00000000e+00    0.00000000e+00    0.00000000e+00    0.00000000e+00    9.06899711e-09    0.00000000e+00
91       4.51000000e-09    0.00000000e+00    0.00000000e+00    0.00000000e+00    0.00000000e+00    9.06899723e-09    0.00000000e+00
92       4.56000000e-09    0.00000000e+00    0.00000000e+00    0.00000000e+00    0.00000000e+00    9.06899716e-09    0.00000000e+00
93       4.61000000e-09    0.00000000e+00    0.00000000e+00    0.00000000e+00    0.00000000e+00    9.06899711e-09    0.00000000e+00
94       4.66000000e-09    0.00000000e+00    0.00000000e+00    0.00000000e+00    0.00000000e+00    9.06899712e-09    0.00000000e+00
95       4.71000000e-09    0.00000000e+00    0.00000000e+00    0.00000000e+00    0.00000000e+00    9.06899710e-09    0.00000000e+00
96       4.76000000e-09    0.00000000e+00    0.00000000e+00    0.00000000e+00    0.00000000e+00    9.06899711e-09    0.00000000e+00
97       4.81000000e-09    0.00000000e+00    0.00000000e+00    0.00000000e+00    0.00000000e+00    9.06899723e-09    0.00000000e+00
98       4.86000000e-09    0.00000000e+00    0.00000000e+00    0.00000000e+00    0.00000000e+00    9.06899716e-09    0.00000000e+00
99       4.91000000e-09    0.00000000e+00    0.00000000e+00    0.00000000e+00    0.00000000e+00    9.06899711e-09    0.00000000e+00
100      4.96000000e-09    0.00000000e+00    0.00000000e+00    0.00000000e+00    0.00000000e+00    9.06899712e-09    0.00000000e+00
101      5.01000000e-09    0.00000000e+00    0.00000000e+00    0.00000000e+00    0.00000000e+00    9.06899710e-09    0.00000000e+00
102      5.06000000e-09    0.00000000e+00    0.00000000e+00    0.00000000e+00    0.00000000e+00    9.06899711e-09    0.00000000e+00
103      5.11000000e-09    0.00000000e+00    0.00000000e+00    0.00000000e+00    0.00000000e+00    9.06899723e-09    0.00000000e+00
104      5.16000000e-09    0.00000000e+00    0.00000000e+00    0.00000000e+00    0.00000000e+00    9.06899716e-09    0.00000000e+00
105      5.21000000e-09    0.00000000e+00    0.00000000e+00    0.00000000e+00    0.00000000e+00    9.06899711e-09    0.00000000e+00
106      5.26000000e-09    0.00000000e+00    0.00000000e+00    0.00000000e+00    0.00000000e+00    9.06899712e-09    0.00000000e+00
107      5.31000000e-09    0.00000000e+00    0.00000000e+00    0.00000000e+00    0.00000000e+00    9.06899710e-09    0.00000000e+00
108      5.36000000e-09    0.00000000e+00    0.00000000e+00    0.00000000e+00    0.00000000e+00    9.06899711e-09    0.00000000e+00
109      5.41000000e-09    0.00000000e+00    0.00000000e+00    0.00000000e+00    0.00000000e+00    9.06899723e-09    0.00000000e+00
110      5.46000000e-09    0.00000000e+00    0.00000000e+00    0.00000000e+00    0.00000000e+00    9.06899716e-09    0.00000000e+00
111      5.51000000e-09    0.00000000e+00    0.00000000e+00    0.00000000e+00    0.00000000e+00    9.06899711e-09    0.00000000e+00
112      5.56000000e-09    0.00000000e+00    0.00000000e+00    0.00000000e+00    0.00000000e+00    9.06899712e-09    0.00000000e+00
113      5.61000000e-09    0.00000000e+00    0.00000000e+00    0.00000000e+00    0.00000000e+00    9.06899710e-09    0.00000000e+00
114      5.66000000e-09    0.00000000e+00    0.00000000e+00    0.00000000e+00    0.00000000e+00    9.06899711e-09    0.00000000e+00
115      5.71000000e-09    0.00000000e+00    0.00000000e+00    0.00000000e+00    0.00000000e+00    9.06899723e-09    0.00000000e+00
116      5.76000000e-09    0.00000000e+00    0.00000000e+00    0.00000000e+00    0.00000000e+00    9.06899716e-09    0.00000000e+00
117      5.81000000e-09    0.00000000e+00    0.00000000e+00    0.00000000e+00    0.00000000e+00    9.06899711e-09    0.00000000e+00
118      5.86000000e-09    0.00000000e+00    0.00000000e+00    0.00000000e+00    0.00000000e+00    9.06899712e-09    0.00000000e+00
119      5.91000000e-09    0.00000000e+00    0.00000000e+00    0.00000000e+00    0.00000000e+00    9.06899710e-09    0.00000000e+00
120      5.96000000e-09    0.00000000e+00    0.00000000e+00    0.00000000e+00    0.00000000e+00    9.06899711e-09    0.00000000e+00
121      6.01000000e-09    0.00000000e+00    0.00000000e+00    0.00000000e+00    0.00000000e+00    9.06899723e-09    0.00000000e+00
122      6.06000000e-09    0.00000000e+00    0.00000000e+00    0.00000000e+00    0.00000000e+00    9.06899716e-09    0.00000000e+00
123      6.11000000e-09    0.00000000e+00    0.00000000e+00    0.00000000e+00    0.00000000e+00    9.06899711e-09    0.00000000e+00
124      6.16000000e-09    0.00000000e+00    0.00000000e+00    0.00000000e+00    0.00000000e+00    9.06899712e-09    0.00000000e+00
125      6.21000000e-09    0.00000000e+00    0.00000000e+00    0.00000000e+00    0.00000000e+00    9.06899710e-09    0.00000000e+00
126      6.26000000e-09    0.00000000e+00    0.00000000e+00    0.00000000e+00    0.00000000e+00    9.06899711e-09    0.00000000e+00
127      6.31000000e-09    0.00000000e+00    0.00000000e+00    0.00000000e+00    0.00000000e+00    9.06899723e-09    0.00000000e+00
128      6.36000000e-09    0.00000000e+00    0.00000000e+00    0.00000000e+00    0.00000000e+00    9.06899716e-09    0.00000000e+00
129      6.41000000e-09    0.00000000e+00    0.00000000e+00    0.00000000e+00    0.00000000e+00    9.06899711e-09    0.00000000e+00
130      6.46000000e-09    0.00000000e+00    0.00000000e+00    0.00000000e+00    0.00000000e+00    9.06899712e-09    0.00000000e+00
131      6.51000000e-09    0.00000000e+00    0.00000000e+00    0.00000000e+00    0.00000000e+00    9.06899710e-09    0.00000000e+00
132      6.56000000e-09    0.00000000e+00    0.00000000e+00    0.00000000e+00    0.00000000e+00    9.06899711e-09    0.00000000e+00
133      6.61000000e-09    0.00000000e+00    0.00000000e+00    0.00000000e+00    0.00000000e+00    9.06899723e-09    0.00000000e+00
134      6.66000000e-09    0.00000000e+00    0.00000000e+00    0.00000000e+00    0.00000000e+00    9.06899716e-09    0.00000000e+00
135      6.71000000e-09    0.00000000e+00    0.00000000e+00    0.00000000e+00    0.00000000e+00    9.06899711e-09    0.00000000e+00
136      6.76000000e-09    0.00000000e+00    0.00000000e+00    0.00000000e+00    0.00000000e+00    9.06899712e-09    0.00000000e+00
137      6.81000000e-09    0.00000000e+00    0.00000000e+00    0.00000000e+00    0.00000000e+00    9.06899710e-09    0.00000000e+00
138      6.86000000e-09    0.00000000e+00    0.00000000e+00    0.00000000e+00    0.00000000e+00    9.06899711e-09    0.00000000e+00
139      6.91000000e-09    0.00000000e+00    0.00000000e+00    0.00000000e+00    0.00000000e+00    9.06899723e-09    0.00000000e+00
140      6.96000000e-09    0.00000000e+00    0.00000000e+00    0.00000000e+00    0.00000000e+00    9.06899716e-09    0.00000000e+00
141      7.01000000e-09    0.00000000e+00    0.00000000e+00    0.00000000e+00    0.00000000e+00    9.06899711e-09    0.00000000e+00
142      7.06000000e-09    0.00000000e+00    0.00000000e+00    0.00000000e+00    0.00000000e+00    9.06899712e-09    0.00000000e+00
143      7.11000000e-09    0.00000000e+00    0.00000000e+00    0.00000000e+00    0.00000000e+00    9.06899710e-09    0.00000000e+00
144      7.16000000e-09    0.00000000e+00    0.00000000e+00    0.00000000e+00    0.00000000e+00    9.06899711e-09    0.00000000e+00
145      7.21000000e-09    0.00000000e+00    0.00000000e+00    0.00000000e+00    0.00000000e+00    9.06899723e-09    0.00000000e+00
146      7.26000000e-09    0.00000000e+00    0.00000000e+00    0.00000000e+00    0.00000000e+00    9.06899716e-09    0.00000000e+00
147      7.31000000e-09    0.00000000e+00    0.00000000e+00    0.00000000e+00    0.00000000e+00    9.06899711e-09    0.00000000e+00
148      7.36000000e-09    0.00000000e+00    0.00000000e+00    0.00000000e+00    0.00000000e+00    9.06899712e-09    0.00000000e+00
149      7.41000000e-09    0.00000000e+00    0.00000000e+00    0.00000000e+00    0.00000000e+00    9.06899710e-09    0.00000000e+00
